"Freq [GHz]","dB(S(1,1)) []"
0.5,-0.951544335872163
0.509,-1.01313704366113
0.518,-1.08261588728053
0.527,-1.16084992403224
0.536,-1.24877098414252
0.545,-1.34736572079377
0.554,-1.45766248337737
0.563,-1.58071172077474
0.572,-1.71755856825007
0.581,-1.86920633582375
0.59,-2.03656985246171
0.599,-2.22041808719418
0.608,-2.4213062187315
0.617,-2.63949839677166
0.626,-2.87488383997531
0.635,-3.12689061550791
0.644,-3.39440335856411
0.653,-3.67569316782369
0.662,-3.96836972126783
0.671,-4.26936695047595
0.68,-4.57497389745797
0.689,-4.8809210057204
0.698,-5.18252833522224
0.707,-5.47491546980381
0.716,-5.75326324024972
0.725,-6.0131059823178
0.734,-6.25062247049577
0.743,-6.46288752276286
0.752,-6.64804789961055
0.761,-6.80539680476517
0.77,-6.93533901397804
0.779,-7.03925842761681
0.788,-7.11931575860342
0.797,-7.17821192251098
0.806,-7.21895159117903
0.815,-7.24463350277858
0.824,-7.25828321526731
0.833,-7.26273352097
0.842,-7.26054985630426
0.851,-7.25399340508435
0.86,-7.24501281431253
0.869,-7.23525565234939
0.878,-7.22609204737674
0.887,-7.21864465632088
0.896,-7.21382079413171
0.905,-7.21234398107747
0.914,-7.21478327032586
0.923,-7.22157951251136
0.932,-7.23306824910641
0.941,-7.24949926287015
0.95,-7.27105300747587
0.959,-7.29785423534518
0.968,-7.32998317726772
0.977,-7.36748462418125
0.986,-7.41037523728435
0.995,-7.45864937836438
1.004,-7.51228371462884
1.013,-7.57124081540572
1.022,-7.63547192396558
1.031,-7.70491905739612
1.04,-7.77951656120841
1.049,-7.85919222305548
1.058,-7.94386803127313
1.067,-8.03346064849982
1.076,-8.12788165796431
1.085,-8.2270376297383
1.094,-8.3308300459646
1.103,-8.43915511746461
1.112,-8.55190351892605
1.121,-8.66896006583695
1.13,-8.7902033532713
1.139,-8.91550537438213
1.148,-9.04473113488203
1.157,-9.17773827877637
1.166,-9.31437674005773
1.175,-9.45448843488493
1.184,-9.5979070088719
1.193,-9.74445765441868
1.202,-9.89395701344769
1.211,-10.0462131813746
1.22,-10.2010258285515
1.229,-10.3581864556686
1.238,-10.5174787995809
1.247,-10.6786794056187
1.256,-10.8415583815322
1.265,-11.0058803466803
1.274,-11.1714055878052
1.283,-11.337891429626
1.292,-11.5050938244822
1.301,-11.6727691603209
1.31,-11.8406762804749
1.319,-12.0085787020074
1.328,-12.1762470120474
1.337,-12.3434614137528
1.346,-12.5100143856116
1.355,-12.675713410104
1.364,-12.8403837207405
1.373,-13.0038710106033
1.382,-13.1660440412265
1.391,-13.3267970883515
1.4,-13.4860521611306
1.409,-13.6437609339293
1.418,-13.7999063350516
1.427,-13.9545037443602
1.436,-14.107601761589
1.445,-14.2592825186598
1.454,-14.4096615219158
1.463,-14.5588870231285
1.472,-14.7071389306765
1.481,-14.8546272836516
1.49,-15.0015903211424
1.499,-15.1482921859871
1.508,-15.2950203064384
1.517,-15.4420825001804
1.526,-15.589803842844
1.535,-15.7385233376293
1.544,-15.8885904139804
1.553,-16.0403612716732
1.562,-16.1941950724026
1.571,-16.350449964195
1.58,-16.5094789048871
1.589,-16.6716252295895
1.598,-16.8372178835
1.607,-17.0065662155901
1.616,-17.1799542004753
1.625,-17.3576339251885
1.634,-17.5398181447573
1.643,-17.7266716760206
1.652,-17.9183013642473
1.661,-18.1147443242456
1.67,-18.3159541309013
1.679,-18.5217846202325
1.688,-18.7319709715558
1.697,-18.9461077898355
1.706,-19.1636240169516
1.715,-19.3837547017165
1.724,-19.6055099897608
1.733,-19.8276422015649
1.742,-20.048612596736
1.751,-20.2665604100286
1.76,-20.479277988903
1.769,-20.6841972903681
1.778,-20.8783944121046
1.787,-21.0586198751037
1.796,-21.2213624869157
1.805,-21.3629531024835
1.814,-21.4797108126945
1.823,-21.5681277549691
1.832,-21.6250803788949
1.841,-21.6480462389155
1.85,-21.635298835939
1.859,-21.5860515235176
1.868,-21.5005268144046
1.877,-21.3799391286265
1.886,-21.2263941832416
1.895,-21.0427224443529
1.904,-20.8322733550619
1.913,-20.5986994634273
1.922,-20.3457556786536
1.931,-20.0771310639517
1.94,-19.7963217060151
1.949,-19.5065455416545
1.958,-19.2106947259073
1.967,-18.9113183374555
1.976,-18.6106274578994
1.985,-18.3105152311141
1.994,-18.0125857576111
2.003,-17.7181871292176
2.012,-17.4284452725445
2.021,-17.1442964078663
2.03,-16.8665168056369
2.039,-16.5957491540875
2.048,-16.3325252807241
2.057,-16.0772852460588
2.066,-15.8303929933621
2.075,-15.5921488293947
2.084,-15.3627990551337
2.093,-15.1425430818895
2.102,-14.9315383700723
2.111,-14.7299035234294
2.12,-14.5377198654219
2.129,-14.3550318184049
2.138,-14.1818464004132
2.147,-14.0181321473663
2.156,-13.8638177584303
2.165,-13.7187907469443
2.174,-13.5828963568153
2.183,-13.4559369732966
2.192,-13.337672217215
2.201,-13.2278198636848
2.21,-13.1260576719654
2.219,-13.0320261551373
2.228,-12.94533226017
2.237,-12.865553874456
2.246,-12.7922450275996
2.255,-12.7249416201798
2.264,-12.6631674864682
2.273,-12.6064405866427
2.282,-12.5542791257335
2.291,-12.5062074100932
2.3,-12.4617612755261
2.309,-12.4204929516688
2.318,-12.381975261934
2.327,-12.3458050944769
2.336,-12.311606114748
2.345,-12.2790307222133
2.354,-12.2477612813299
2.363,-12.2175106789558
2.372,-12.1880222767406
2.381,-12.1590693377717
2.39,-12.1304540123118
2.399,-12.1020059685315
2.408,-12.0735807515432
2.417,-12.0450579486277
2.426,-12.0163392311538
2.435,-11.9873463350762
2.444,-11.9580190326986
2.453,-11.9283131391533
2.462,-11.8981985881637
2.471,-11.8676576034227
2.48,-11.8366829845276
2.489,-11.8052765199514
2.498,-11.7734475340517
2.507,-11.741211570588
2.516,-11.7085892115853
2.525,-11.675605027569
2.534,-11.642286653099
2.543,-11.6086639800634
2.552,-11.5747684602388
2.561,-11.5406325081043
2.57,-11.5062889947187
2.579,-11.4717708235561
2.588,-11.4371105794822
2.597,-11.4023402424835
2.606,-11.367490958288
2.615,-11.3325928586038
2.624,-11.2976749243134
2.633,-11.2627648855867
2.642,-11.2278891534837
2.651,-11.1930727782025
2.66,-11.1583394296855
2.669,-11.12371139681
2.678,-11.0892096018651
2.687,-11.0548536274491
2.696,-11.0206617533158
2.705,-10.9866510010436
2.714,-10.9528371847208
2.723,-10.9192349661105
2.732,-10.8858579130066
2.741,-10.8527185597026
2.75,-10.8198284686835
2.759,-10.787198292808
2.768,-10.7548378373905
2.777,-10.7227561217106
2.786,-10.6909614395779
2.795,-10.6594614186691
2.804,-10.6282630784272
2.813,-10.5973728863723
2.822,-10.5667968127294
2.831,-10.5365403833172
2.84,-10.5066087306813
2.849,-10.4770066434836
2.858,-10.447738614181
2.867,-10.4188088850512
2.876,-10.3902214926326
2.885,-10.3619803106628
2.894,-10.3340890916063
2.903,-10.3065515068685
2.912,-10.2793711858026
2.921,-10.2525517536124
2.93,-10.2260968682626
2.939,-10.2000102565056
2.948,-10.1742957491346
2.957,-10.1489573155707
2.966,-10.1239990978932
2.975,-10.0994254444177
2.984,-10.0752409429248
2.993,-10.0514504536379
3.002,-10.0280591420488
3.011,-10.0050725116807
3.02,-9.98249643687758
3.029,-9.96033719570235
3.038,-9.93860150302124
3.047,-9.91729654384448
3.056,-9.89643000698749
3.065,-9.87601011910903
3.074,-9.85604567917244
3.083,-9.83654609336705
3.092,-9.81752141051551
3.101,-9.79898235797781
3.11,-9.78094037805019
3.119,-9.76340766483778
3.128,-9.74639720156045
3.137,-9.72992279822962
3.146,-9.71399912960532
3.155,-9.69864177331615
3.164,-9.68386724798737
3.173,-9.66969305118454
3.182,-9.65613769693603
3.191,-9.64322075254453
3.2,-9.63096287434231
3.209,-9.61938584197581
3.218,-9.60851259073246
3.227,-9.59836724133667
3.236,-9.58897512654684
3.245,-9.58036281377656
3.254,-9.57255812284363
3.263,-9.56559013781462
3.272,-9.55948921176229
3.281,-9.55428696308694
3.29,-9.55001626186816
3.299,-9.54671120451111
3.308,-9.54440707473091
3.317,-9.54314028867947
3.326,-9.54294832175967
3.335,-9.54386961440042
3.344,-9.5459434537721
3.353,-9.54920982812383
3.362,-9.55370925011285
3.371,-9.55948254518825
3.38,-9.56657060078888
3.389,-9.57501407183292
3.398,-9.5848530377278
3.407,-9.59612660593156
3.416,-9.6088724569734
3.425,-9.62312632581701
3.434,-9.63892141455996
3.443,-9.65628773174319
3.452,-9.67525135403592
3.461,-9.69583360682062
3.47,-9.71805016127464
3.479,-9.74191004699961
3.488,-9.76741458113621
3.497,-9.79455621729699
3.506,-9.82331732059618
3.515,-9.8536688786156
3.524,-9.88556916234508
3.533,-9.91896235598817
3.542,-9.95377718000446
3.551,-9.98992553779675
3.56,-10.0273012229173
3.569,-10.0657787303597
3.578,-10.1052122221329
3.587,-10.1454347035057
3.596,-10.1862574715692
3.605,-10.2274699015347
3.614,-10.2688396377773
3.623,-10.3101132553694
3.632,-10.3510174529813
3.641,-10.3912608289254
3.65,-10.4305362782661
3.659,-10.4685240300609
3.668,-10.504895320034
3.677,-10.5393166658525
3.686,-10.571454680758
3.695,-10.6009813282164
3.704,-10.627579487623
3.713,-10.6509486714702
3.722,-10.6708107104765
3.731,-10.6869152076286
3.74,-10.6990445571597
3.749,-10.7070183316821
3.758,-10.7106968605358
3.767,-10.7099838542404
3.776,-10.7048279718813
3.785,-10.695223277382
3.794,-10.6812085832117
3.803,-10.6628657320727
3.812,-10.6403169145538
3.821,-10.6137211602068
3.83,-10.5832701685156
3.839,-10.5491836634086
3.848,-10.5117044601274
3.857,-10.4710934273002
3.866,-10.4276245117108
3.875,-10.3815799708066
3.884,-10.3332459309732
3.893,-10.2829083605107
3.902,-10.2308495172685
3.911,-10.177344903821
3.92,-10.1226607391557
3.929,-10.0670519358947
3.938,-10.0107605563931
3.947,-9.95401470962104
3.956,-9.89702784322682
3.965,-9.83999838110485
3.974,-9.78310965557001
3.983,-9.72653008426296
3.992,-9.67041354459213
4.001,-9.61489990233451
4.01,-9.56011565551954
4.019,-9.50617465954356
4.028,-9.45317890432491
4.037,-9.40121931900337
4.046,-9.35037658407087
4.055,-9.30072193480525
4.064,-9.25231794341832
4.073,-9.20521927041269
4.082,-9.15947337827507
4.091,-9.11512120284719
4.1,-9.07219777954054
4.109,-9.03073282304148
4.118,-8.99075126032941
4.127,-8.95227371774596
4.136,-8.91531696354656
4.145,-8.8798943078715
4.154,-8.84601596243055
4.163,-8.81368936242215
4.172,-8.78291945334033
4.181,-8.75370894537368
4.19,-8.72605853809105
4.199,-8.69996711805395
4.208,-8.67543193190663
4.217,-8.65244873738085
4.226,-8.631011934524
4.235,-8.61111467931826
4.244,-8.59274898171501
4.253,-8.57590578996141
4.262,-8.56057506295165
4.271,-8.54674583219343
4.28,-8.53440625484307
4.289,-8.52354365913232
4.298,-8.51414458338412
4.307,-8.50619480969733
4.316,-8.49967939326937
4.325,-8.49458268822122
4.334,-8.49088837069214
4.343,-8.48857945988089
4.352,-8.48763833762571
4.361,-8.48804676703728
4.37,-8.48978591062674
4.379,-8.49283634830417
4.388,-8.49717809556154
4.397,-8.50279062209787
4.406,-8.50965287109332
4.415,-8.51774327929192
4.424,-8.52703979801014
4.433,-8.5375199151506
4.442,-8.54916067826568
4.451,-8.56193871868556
4.46,-8.5758302766979
4.469,-8.59081122774338
4.478,-8.60685710957033
4.487,-8.62394315027517
4.496,-8.64204429713984
4.505,-8.66113524616689
4.514,-8.68119047220233
4.523,-8.70218425953047
4.532,-8.72409073281892
4.541,-8.74688388829038
4.55,-8.77053762499548
4.559,-8.79502577606213
4.568,-8.82032213979867
4.577,-8.84640051053115
4.586,-8.87323470905942
4.595,-8.90079861262225
4.604,-8.9290661842673
4.613,-8.95801150152906
4.622,-8.98760878432462
4.631,-9.01783242198529
4.64,-9.04865699934963
4.649,-9.08005732185184
4.658,-9.11200843954755
4.667,-9.14448567002718
4.676,-9.17746462017536
4.685,-9.21092120674224
4.694,-9.24483167570095
4.703,-9.27917262037207
4.712,-9.31392099830354
4.721,-9.34905414690094
4.73,-9.38454979780901
4.739,-9.42038609005172
4.748,-9.45654158194301
4.757,-9.49299526178565
4.766,-9.52972655737978
4.775,-9.56671534436727
4.784,-9.60394195344099
4.793,-9.64138717645179
4.802,-9.67903227144836
4.811,-9.71685896668766
4.82,-9.75484946365549
4.829,-9.79298643913833
4.838,-9.83125304638882
4.847,-9.86963291542823
4.856,-9.90811015252967
4.865,-9.94666933892641
4.874,-9.98529552878939
4.883,-10.0239742465183
4.892,-10.0626914833894
4.901,-10.1014336936044
4.91,-10.140187789781
4.919,-10.1789411379286
4.928,-10.2176815519485
4.937,-10.2563972876983
4.946,-10.2950770366589
4.955,-10.333709919241
4.964,-10.3722854777665
4.973,-10.4107936691591
4.982,-10.449224857377
4.991,-10.4875698056192
5,-10.5258196683343
