"Freq [GHz]","dB(S(1,1)) []"
0.5,-0.184170650637942
0.509,-0.201303405344042
0.518,-0.218940023502791
0.527,-0.237211512924298
0.536,-0.256267425305105
0.545,-0.276277761911793
0.554,-0.297435033978968
0.563,-0.319956474439313
0.572,-0.344086391363771
0.581,-0.370098645246676
0.59,-0.398299221618736
0.599,-0.429028856986472
0.608,-0.46266565936581
0.617,-0.499627644344184
0.626,-0.540375083438718
0.635,-0.585412533508823
0.644,-0.635290384464272
0.653,-0.690605728313899
0.662,-0.752002317220566
0.671,-0.820169343997088
0.68,-0.895838748708553
0.689,-0.979780734098399
0.698,-1.07279716576203
0.707,-1.17571254637007
0.716,-1.28936229292655
0.725,-1.414578117384
0.734,-1.55217041729348
0.743,-1.70290772453746
0.752,-1.86749343187901
0.761,-2.04654020878999
0.77,-2.2405427139555
0.779,-2.44984939190735
0.788,-2.6746342839171
0.797,-2.91486986984549
0.806,-3.17030197698547
0.815,-3.44042774494743
0.824,-3.72447753776224
0.833,-4.02140157501731
0.842,-4.32986195185165
0.851,-4.64823067303228
0.86,-4.97459436910948
0.869,-5.30676650045867
0.878,-5.64230806197336
0.887,-5.97855801047001
0.896,-6.31267474047348
0.905,-6.64168979331468
0.914,-6.96257445533154
0.923,-7.2723188755342
0.932,-7.56802179382661
0.941,-7.84698704419658
0.95,-8.10682098316829
0.959,-8.34552334301091
0.968,-8.56156322946764
0.977,-8.75393248473399
0.986,-8.92217056126713
0.995,-9.06635817097362
1.004,-9.1870807048598
1.013,-9.2853659844832
1.022,-9.36260358029412
1.031,-9.42045425297708
1.04,-9.46075795914725
1.049,-9.48544757332117
1.058,-9.49647348086167
1.067,-9.49574199474083
1.076,-9.48506854849928
1.085,-9.46614506321222
1.094,-9.44051986132132
1.103,-9.4095879686852
1.112,-9.37458950529406
1.121,-9.33661399132018
1.13,-9.29660867494593
1.139,-9.25538933288669
1.148,-9.21365234296725
1.157,-9.1719871445862
1.166,-9.13088847031115
1.175,-9.09076794573796
1.184,-9.05196481816132
1.193,-9.01475569431047
1.202,-8.97936325142812
1.211,-8.94596394215167
1.22,-8.91469474891491
1.229,-8.88565906365567
1.238,-8.8589317780234
1.247,-8.8345636714857
1.256,-8.81258518229219
1.265,-8.79300964100581
1.274,-8.7758360395439
1.283,-8.76105140125692
1.292,-8.74863281008521
1.301,-8.73854914962961
1.31,-8.73076259625984
1.319,-8.72522990426936
1.328,-8.72190351560648
1.337,-8.7207325218644
1.346,-8.7216635019672
1.355,-8.72464125530021
1.364,-8.72960944685055
1.373,-8.73651117819444
1.382,-8.74528949583954
1.391,-8.75588784645578
1.4,-8.76825048686135
1.409,-8.78232285523167
1.418,-8.79805190883212
1.427,-8.81538643260805
1.436,-8.83427732216967
1.445,-8.85467784406
1.454,-8.87654387566942
1.463,-8.89983412674118
1.472,-8.9245103440821
1.481,-8.95053750083617
1.49,-8.97788397148476
1.499,-9.00652169359241
1.508,-9.03642631721439
1.517,-9.06757734281099
1.526,-9.09995824846835
1.535,-9.13355660719971
1.544,-9.16836419508895
1.553,-9.2043770910365
1.562,-9.24159576887188
1.571,-9.28002518260527
1.58,-9.31967484559896
1.589,-9.36055890444807
1.598,-9.40269620836612
1.607,-9.44611037487417
1.616,-9.49082985259263
1.625,-9.53688798193075
1.634,-9.58432305446187
1.643,-9.63317837176201
1.652,-9.68350230447601
1.661,-9.73534835236057
1.67,-9.78877520603664
1.679,-9.84384681116757
1.688,-9.90063243576344
1.697,-9.95920674129884
1.706,-10.0196498583215
1.715,-10.0820474672246
1.724,-10.1464908848574
1.733,-10.2130771576596
1.742,-10.2819091620245
1.751,-10.3530957126304
1.76,-10.4267516795246
1.769,-10.502998114809
1.778,-10.581962389858
1.787,-10.6637783441022
1.796,-10.7485864465368
1.805,-10.8365339712692
1.814,-10.9277751885975
1.823,-11.0224715733272
1.832,-11.1207920322779
1.841,-11.222913153214
1.85,-11.3290194777527
1.859,-11.4393038011623
1.868,-11.5539675023601
1.877,-11.6732209078571
1.886,-11.7972836938702
1.895,-11.9263853313243
1.904,-12.0607655789972
1.913,-12.2006750305931
1.922,-12.3463757220622
1.931,-12.498141805969
1.94,-12.6562603001247
1.949,-12.8210319179683
1.958,-12.9927719882345
1.967,-13.1718114711576
1.976,-13.3584980776714
1.985,-13.5531974965429
1.994,-13.7562947317879
2.003,-13.9681955486143
2.012,-14.1893280198513
2.021,-14.4201441554439
2.03,-14.6611215837977
2.039,-14.9127652336773
2.048,-15.1756089363177
2.057,-15.4502168255539
2.066,-15.7371843535891
2.075,-16.0371386535341
2.084,-16.3507378555554
2.093,-16.6786687847288
2.102,-17.0216422115022
2.111,-17.380384455428
2.12,-17.7556236101426
2.129,-18.1480678926585
2.138,-18.5583725266628
2.147,-18.987090019902
2.156,-19.4345965323419
2.165,-19.9009840888111
2.174,-20.3859045642732
2.183,-20.8883468038498
2.192,-21.4063237319038
2.201,-21.9364441467549
2.21,-22.4733493762811
2.219,-23.0090185434428
2.228,-23.5320051917859
2.237,-24.026783371792
2.246,-24.4735586449596
2.255,-24.8490819496217
2.264,-25.1290112416495
2.273,-25.2919198968415
2.282,-25.3240622063689
2.291,-25.2230136655182
2.3,-24.9983479450543
2.309,-24.6689776945846
2.318,-24.2585701953968
2.327,-23.7910772073867
2.336,-23.2877056867486
2.345,-22.7655599180268
2.354,-22.2375146923971
2.363,-21.7127435442559
2.372,-21.1974700686328
2.381,-20.6957020345599
2.39,-20.2098486723812
2.399,-19.7411999605741
2.408,-19.2902815682241
2.417,-18.8571099763207
2.426,-18.4413722352477
2.435,-18.042550821366
2.444,-17.6600093601313
2.453,-17.2930508314897
2.462,-16.9409565941374
2.471,-16.603012119491
2.48,-16.2785235596511
2.489,-15.9668280211488
2.498,-15.6672995377172
2.507,-15.3793521226927
2.516,-15.102440855686
2.525,-14.8360616622928
2.534,-14.5797502401352
2.543,-14.3330804417609
2.552,-14.0956623257367
2.561,-13.8671400183803
2.57,-13.6471894808255
2.579,-13.4355162431486
2.588,-13.2318531446906
2.597,-13.0359581044223
2.606,-12.8476119350713
2.615,-12.6666162082524
2.624,-12.492791173958
2.633,-12.3259737357134
2.642,-12.166015481936
2.651,-12.012780774167
2.66,-11.8661448935612
2.669,-11.7259922481102
2.678,-11.5922146443493
2.687,-11.4647096286169
2.696,-11.3433789041853
2.705,-11.2281268316562
2.714,-11.1188590208387
2.723,-11.0154810228418
2.732,-10.9178971312578
2.741,-10.8260093010806
2.75,-10.7397161933559
2.759,-10.6589123525371
2.768,-10.583487522122
2.777,-10.5133261024354
2.786,-10.448306752452
2.795,-10.3883021354
2.804,-10.3331788056296
2.813,-10.2827972319615
2.822,-10.23701195053
2.831,-10.1956718380959
2.84,-10.1586204949912
2.849,-10.1256967253332
2.858,-10.096735100963
2.867,-10.0715665947461
2.876,-10.0500192684309
2.885,-10.0319190002023
2.894,-10.0170902373548
2.903,-10.0053567601283
2.912,-9.99654244364111
2.921,-9.99047200598123
2.93,-9.9869717318154
2.939,-9.98587016229736
2.948,-9.98699874354282
2.957,-9.9901924274445
2.966,-9.99529022007775
2.975,-10.0021356743604
2.984,-10.0105773249485
2.993,-10.0204690645491
3.002,-10.0316704618973
3.011,-10.0440470225667
3.02,-10.0574703945579
3.029,-10.0718185212409
3.038,-10.0869757447172
3.047,-10.1028328630268
3.056,-10.1192871448673
3.065,-10.1362423056197
3.074,-10.1536084485185
3.083,-10.1713019747528
3.092,-10.1892454661774
3.101,-10.2073675441374
3.11,-10.2256027076996
3.119,-10.2438911543287
3.128,-10.2621785857757
3.137,-10.2804160016486
3.146,-10.2985594828341
3.155,-10.3165699666353
3.164,-10.334413015183
3.173,-10.3520585783857
3.182,-10.3694807524004
3.191,-10.3866575343402
3.2,-10.4035705736978
3.209,-10.4202049207436
3.218,-10.4365487719848
3.227,-10.4525932126259
3.236,-10.4683319558769
3.245,-10.4837610789157
3.254,-10.4988787553207
3.263,-10.5136849838769
3.272,-10.5281813138043
3.281,-10.542370566689
3.29,-10.5562565557008
3.299,-10.5698438030651
3.308,-10.5831372572142
3.317,-10.5961420115688
3.326,-10.6088630274689
3.335,-10.6213048643824
3.344,-10.6334714211174
3.353,-10.6453656923364
3.362,-10.6569895451616
3.371,-10.6683435210264
3.38,-10.6794266681266
3.389,-10.690236409801
3.398,-10.7007684538797
3.407,-10.7110167474646
3.416,-10.7209734807115
3.425,-10.730629141987
3.434,-10.7399726252984
3.443,-10.7489913891931
3.452,-10.7576716644687
3.461,-10.7659987061372
3.47,-10.7739570832418
3.479,-10.7815309984695
3.488,-10.7887046281403
3.497,-10.7954624721921
3.506,-10.8017897032939
3.515,-10.8076725042516
3.524,-10.8130983834235
3.533,-10.8180564589084
3.542,-10.8225377037331
3.551,-10.8265351460497
3.56,-10.8300440203439
3.569,-10.8330618677136
3.578,-10.8355885852973
3.587,-10.8376264267812
3.596,-10.839179957522
3.605,-10.8402559691105
3.614,-10.8408633591458
3.623,-10.8410129825703
3.632,-10.840717481159
3.641,-10.8399910976932
3.65,-10.8388494810237
3.659,-10.8373094877043
3.668,-10.835388985212
3.677,-10.8331066610101
3.686,-10.8304818409242
3.695,-10.8275343195136
3.704,-10.8242842043781
3.713,-10.8207517756572
3.722,-10.8169573613838
3.731,-10.8129212288415
3.74,-10.8086634916577
3.749,-10.8042040320361
3.758,-10.7995624372832
3.767,-10.794757949613
3.776,-10.7898094281034
3.785,-10.784735321625
3.794,-10.7795536515492
3.803,-10.7742820030706
3.812,-10.7689375240231
3.821,-10.7635369301403
3.83,-10.7580965157904
3.839,-10.7526321693016
3.848,-10.7471593920862
3.857,-10.741693320858
3.866,-10.7362487523287
3.875,-10.7308401698472
3.884,-10.7254817715244
3.893,-10.7201874994573
3.902,-10.7149710697275
3.911,-10.7098460029087
3.92,-10.7048256548659
3.929,-10.6999232476758
3.938,-10.695151900533
3.947,-10.6905246605428
3.956,-10.6860545333264
3.965,-10.6817545133894
3.974,-10.6776376142227
3.983,-10.67371689812
3.992,-10.6700055057114
4.001,-10.6665166852156
4.01,-10.6632638214271
4.019,-10.6602604644524
4.028,-10.6575203582162
4.037,-10.655057468754
4.046,-10.6528860123087
4.055,-10.6510204832425
4.064,-10.6494756817705
4.073,-10.6482667415141
4.082,-10.6474091568622
4.091,-10.6469188101164
4.1,-10.6468119983829
4.109,-10.647105460155
4.118,-10.6478164015136
4.127,-10.6489625218486
4.136,-10.6505620389793
4.145,-10.6526337135218
4.154,-10.6551968723198
4.163,-10.6582714307133
4.172,-10.6618779133803
4.181,-10.6660374734331
4.19,-10.6707719093976
4.199,-10.6761036796373
4.208,-10.682055913715
4.217,-10.6886524200998
4.226,-10.6959176895375
4.235,-10.7038768932992
4.244,-10.7125558754056
4.253,-10.7219811377953
4.262,-10.7321798172613
4.271,-10.7431796528186
4.28,-10.7550089419878
4.289,-10.7676964842825
4.298,-10.7812715099775
4.307,-10.7957635919935
4.316,-10.8112025384899
4.325,-10.8276182634777
4.334,-10.8450406324831
4.343,-10.8634992799889
4.352,-10.8830233950687
4.361,-10.9036414713203
4.37,-10.9253810168939
4.379,-10.948268220124
4.388,-10.9723275660161
4.397,-10.9975813986402
4.406,-11.0240494243545
4.415,-11.0517481507709
4.424,-11.080690256506
4.433,-11.1108838870856
4.442,-11.1423318729469
4.451,-11.1750308663656
4.46,-11.2089703954036
4.469,-11.2441318347049
4.478,-11.2804872952457
4.487,-11.3179984380656
4.496,-11.356615220653
4.505,-11.3962745891048
4.514,-11.4368991344988
4.523,-11.4783957381155
4.532,-11.5206542372224
4.541,-11.5635461509722
4.55,-11.606923514404
4.559,-11.6506178772524
4.568,-11.6944395328299
4.577,-11.738177050044
4.586,-11.7815971878696
4.595,-11.8244452753757
4.604,-11.8664461406336
4.613,-11.9073056673583
4.622,-11.9467130478296
4.631,-11.9843437835346
4.64,-12.0198634604254
4.649,-12.0529322935874
4.658,-12.0832103970654
4.667,-12.1103636900921
4.676,-12.1340703034673
4.685,-12.1540273027599
4.694,-12.1699575024953
4.703,-12.1816161121172
4.712,-12.1887969347071
4.721,-12.1913378369204
4.73,-12.1891252257029
4.739,-12.182097304565
4.748,-12.1702459378076
4.757,-12.1536170212594
4.766,-12.1323093371179
4.775,-12.1064719515917
4.784,-12.0763002901228
4.793,-12.042031089588
4.802,-12.0039364750384
4.811,-11.9623174372375
4.82,-11.9174969957051
4.829,-11.8698133214836
4.838,-11.8196130674042
4.847,-11.7672451153626
4.856,-11.7130549046024
4.865,-11.6573794567317
4.874,-11.6005431660777
4.883,-11.542854381069
4.892,-11.4846027657091
4.901,-11.4260574009796
4.91,-11.3674655644854
4.919,-11.3090521124511
4.928,-11.2510193805019
4.937,-11.1935475174249
4.946,-11.1367951681545
4.955,-11.0809004273985
4.964,-11.0259819925882
4.973,-10.9721404532973
4.982,-10.919459663227
4.991,-10.8680081497386
5,-10.8178405243531
