"Freq [GHz]","dB(S(1,1)) []"
0.5,-0.0389736332573329
0.509,-0.0405795436095633
0.518,-0.0422671057105863
0.527,-0.0440418390442696
0.536,-0.0459097169495571
0.545,-0.0478772051704531
0.554,-0.0499513038836121
0.563,-0.0521395935417947
0.572,-0.0544502849069316
0.581,-0.0568922736857913
0.59,-0.0594752002249036
0.599,-0.062209514769895
0.608,-0.0651065488483316
0.617,-0.0681785933950053
0.626,-0.0714389843054158
0.635,-0.0749021961771091
0.644,-0.0785839450810968
0.653,-0.0825013012972077
0.662,-0.0866728130491013
0.671,-0.0911186423880543
0.68,-0.0958607145005508
0.689,-0.100922881854698
0.698,-0.10633110475584
0.707,-0.112113650054242
0.716,-0.118301309938978
0.725,-0.124927642963911
0.734,-0.132029239686048
0.743,-0.139646015555346
0.752,-0.147821533980563
0.761,-0.15660336280958
0.77,-0.16604346780741
0.779,-0.176198647091985
0.788,-0.187131010898751
0.797,-0.198908511491188
0.806,-0.211605528515632
0.815,-0.225303515615585
0.824,-0.240091714670168
0.833,-0.256067944601542
0.842,-0.273339472299877
0.851,-0.292023973834771
0.86,-0.312250594745669
0.869,-0.334161118814989
0.878,-0.357911255303582
0.887,-0.383672055139752
0.896,-0.411631466962993
0.905,-0.441996044184483
0.914,-0.474992814280005
0.923,-0.51087132130596
0.932,-0.549905852041812
0.941,-0.592397855113455
0.95,-0.63867856083152
0.959,-0.689111807165075
0.968,-0.744097074139248
0.977,-0.804072724874884
0.986,-0.869519446379215
0.995,-0.940963876990714
1.004,-1.01898240009348
1.013,-1.10420507547745
1.022,-1.19731967082958
1.031,-1.29907574683645
1.04,-1.41028874111647
1.049,-1.53184398994875
1.058,-1.66470062429945
1.067,-1.80989528033886
1.076,-1.9685455775366
1.085,-2.14185334327132
1.094,-2.33110760614002
1.103,-2.53768744586673
1.112,-2.76306488144016
1.121,-3.00880810674485
1.13,-3.27658555063176
1.139,-3.56817145264032
1.148,-3.8854539139768
1.157,-4.23044671587122
1.166,-4.605306609304
1.175,-5.01235829661567
1.184,-5.45412998995538
1.193,-5.93340331773474
1.202,-6.4532825827765
1.211,-7.01729016274872
1.22,-7.62949753188684
1.229,-8.29470555701539
1.238,-9.01869438127134
1.247,-9.80857411577354
1.256,-10.6732859089981
1.265,-11.6243347735569
1.274,-12.6768925983398
1.283,-13.8515160462185
1.292,-15.1769302183568
1.301,-16.6947446421086
1.31,-18.4678227946012
1.319,-20.5956657388817
1.328,-23.2414836191096
1.337,-26.6512561495011
1.346,-30.741077843457
1.355,-31.9055157128594
1.364,-28.4436741107375
1.373,-25.1281354728254
1.382,-22.6452798437548
1.391,-20.747628375798
1.4,-19.2435376221606
1.409,-18.0156569797107
1.418,-16.9905407512681
1.427,-16.1199806210129
1.436,-15.3708731301859
1.445,-14.7195934816652
1.454,-14.1487287173624
1.463,-13.6450933667154
1.472,-13.1984738698173
1.481,-12.8008050715476
1.49,-12.4456128774446
1.499,-12.1276265393643
1.508,-11.8425023514787
1.517,-11.5866224969243
1.526,-11.356945804229
1.535,-11.1508951292373
1.544,-10.9662710760796
1.553,-10.8011849886498
1.562,-10.6540062628409
1.571,-10.5233204535236
1.58,-10.4078956248448
1.589,-10.3066550709685
1.598,-10.2186550142361
1.607,-10.1430662319712
1.616,-10.0791588134195
1.625,-10.0262894325127
1.634,-9.98389065928091
1.643,-9.95146193593005
1.652,-9.9285619220335
1.661,-9.91480197346586
1.67,-9.90984056628329
1.679,-9.91337851310942
1.688,-9.92515484818336
1.697,-9.94494327988948
1.706,-9.97254912767604
1.715,-10.007806674801
1.724,-10.0505768800911
1.733,-10.1007454014526
1.742,-10.1582208916835
1.751,-10.222933533549
1.76,-10.294833786377
1.769,-10.3738913207999
1.778,-10.4600941218922
1.787,-10.5534477439428
1.796,-10.6539747025541
1.805,-10.7617139917433
1.814,-10.876720715285
1.823,-10.9990658226923
1.832,-11.128835941001
1.841,-11.2661332938719
1.85,-11.4110756994218
1.859,-11.563796637557
1.868,-11.7244453763153
1.877,-11.8931871446612
1.886,-12.0702033361159
1.895,-12.2556917232542
1.904,-12.4498666570636
1.913,-12.6529592169183
1.922,-12.8652172657535
1.931,-13.0869053499897
1.94,-13.3183043635576
1.949,-13.559710868304
1.958,-13.8114359267939
1.967,-14.0738032549874
1.976,-14.3471464373272
1.985,-14.63180485995
1.994,-14.9281179018422
2.003,-15.236416769445
2.012,-15.5570131555955
2.021,-15.8901836341814
2.03,-16.2361483505089
2.039,-16.5950421164276
2.048,-16.9668754544696
2.057,-17.3514824550208
2.066,-17.7484515442551
2.075,-18.1570345028368
2.084,-18.5760285459209
2.093,-19.0036264156025
2.102,-19.4372310525011
2.111,-19.8732358372356
2.12,-20.3067805866825
2.129,-20.7315098256699
2.138,-21.1393850692684
2.147,-21.5206354466104
2.156,-21.863961734402
2.165,-22.1571161106613
2.174,-22.3879312052603
2.183,-22.5457419124483
2.192,-22.6229501461446
2.201,-22.6163164529694
2.21,-22.5275528137819
2.219,-22.3630003776647
2.228,-22.1325112329477
2.237,-21.8479182664801
2.246,-21.5215340498142
2.255,-21.1649880231732
2.264,-20.7885133967283
2.273,-20.4006408179358
2.282,-20.0081838329187
2.291,-19.6163950183682
2.3,-19.2291981662426
2.309,-18.8494354111642
2.318,-18.4790960657429
2.327,-18.1195128662731
2.336,-17.7715224478291
2.345,-17.4355925093257
2.354,-17.1119204305963
2.363,-16.8005085870984
2.372,-16.5012212221374
2.381,-16.2138270170869
2.39,-15.9380307220686
2.399,-15.6734964978243
2.408,-15.419865018742
2.417,-15.1767659025104
2.426,-14.9438266519538
2.435,-14.7206790019898
2.444,-14.5069633418784
2.453,-14.3023317146103
2.462,-14.1064497687044
2.471,-13.9189979427653
2.48,-13.7396720920859
2.489,-13.5681837134052
2.498,-13.4042598841473
2.507,-13.2476430026962
2.516,-13.0980903939669
2.525,-12.9553738278443
2.534,-12.819278985549
2.543,-12.6896048996268
2.552,-12.5661633862422
2.561,-12.4487784832152
2.57,-12.3372859033248
2.579,-12.2315325094937
2.588,-12.1313758163148
2.597,-12.0366835207906
2.606,-11.9473330640082
2.615,-11.8632112246372
2.624,-11.7842137445591
2.633,-11.7102449865356
2.642,-11.6412176235677
2.651,-11.5770523594446
2.66,-11.5176776799119
2.669,-11.4630296338786
2.678,-11.4130516441201
2.687,-11.367694347007
2.696,-11.3269154608936
2.705,-11.2906796829255
2.714,-11.258958614168
2.723,-11.2317307131263
2.732,-11.2089812779008
2.741,-11.1907024574226
2.75,-11.176893292425
2.759,-11.1675597870397
2.768,-11.162715012162
2.777,-11.1623792420062
2.786,-11.1665801255814
2.795,-11.1753528951587
2.804,-11.1887406141805
2.813,-11.2067944674923
2.822,-11.2295740972555
2.831,-11.2571479884522
2.84,-11.2895939085137
2.849,-11.3269994063223
2.858,-11.3694623766634
2.867,-11.4170916971587
2.876,-11.4700079458259
2.885,-11.5283442087097
2.894,-11.5922469885533
2.903,-11.6618772272798
2.912,-11.737411457178
2.921,-11.8190430982192
2.93,-11.9069839219504
2.939,-12.0014657060342
2.948,-12.1027421078692
2.957,-12.2110907910125
2.966,-12.3268158445565
2.975,-12.4502505434806
2.984,-12.58176050767
2.993,-12.7217473292594
3.002,-12.8706527528395
3.011,-13.0289635116951
3.02,-13.1972169467165
3.029,-13.3760075644099
3.038,-13.5659947285054
3.047,-13.7679117287043
3.056,-13.9825765338278
3.065,-14.2109046201348
3.074,-14.4539243760868
3.083,-14.7127957325674
3.092,-14.9888328672451
3.101,-15.2835321048893
3.11,-15.5986065138657
3.119,-15.9360292307112
3.128,-16.2980883031638
3.137,-16.687456942268
3.146,-17.1072846997489
3.155,-17.5613175378185
3.164,-18.0540585383588
3.173,-18.5909869763549
3.182,-19.1788632093353
3.191,-19.826163180288
3.2,-20.5437148337781
3.209,-21.3456606169812
3.218,-22.2509694960304
3.227,-23.285923537111
3.236,-24.4884443873158
3.245,-25.9161768666525
3.254,-27.6630662003576
3.263,-29.8979753282176
3.272,-32.9731036298798
3.281,-37.8357907361681
3.29,-48.327630156031
3.299,-41.9153974871006
3.308,-34.9099962767832
3.317,-30.9741575045186
3.326,-28.2355533454657
3.335,-26.1317735218273
3.344,-24.4218841219203
3.353,-22.980779777772
3.362,-21.7352317993535
3.371,-20.6387113097713
3.38,-19.6598312582581
3.389,-18.7764306422851
3.398,-17.9722896724965
3.407,-17.2351863406841
3.416,-16.5556865466805
3.425,-15.9263587215345
3.434,-15.3412458405937
3.443,-14.7954997517542
3.452,-14.2851213518791
3.461,-13.8067718193066
3.47,-13.3576327727538
3.479,-12.9353008840457
3.488,-12.5377072446397
3.497,-12.1630548410366
3.506,-11.8097694968544
3.515,-11.4764609802705
3.524,-11.1618918906369
3.533,-10.8649525733988
3.542,-10.5846407604585
3.551,-10.3200449535911
3.56,-10.0703308007712
3.569,-9.83472988567229
3.578,-9.61253047708712
3.587,-9.40306987996153
3.596,-9.20572810180195
3.605,-9.01992260352335
3.614,-8.84510394673337
3.623,-8.68075218315275
3.632,-8.52637385864582
3.641,-8.38149952585514
3.65,-8.24568167693144
3.659,-8.11849302223561
3.668,-7.99952505283713
3.677,-7.88838683464532
3.686,-7.78470399046329
3.695,-7.68811783343311
3.704,-7.59828462146152
3.713,-7.5148749074454
3.722,-7.43757296458755
3.731,-7.36607626991057
3.74,-7.30009503232771
3.749,-7.2393517543856
3.758,-7.18358081911789
3.767,-7.13252809539539
3.776,-7.0859505567742
3.785,-7.04361591017328
3.794,-7.00530223179387
3.803,-6.97079760856064
3.812,-6.93989978404989
3.821,-6.91241580840091
3.83,-6.88816169210777
3.839,-6.8669620638836
3.848,-6.84864983299456
3.857,-6.83306585659696
3.866,-6.82005861268884
3.875,-6.80948387932265
3.884,-6.8012044207271
3.893,-6.7950896809633
3.902,-6.79101548570062
3.911,-6.78886375264672
3.92,-6.78852221110952
3.929,-6.78988413111011
3.938,-6.7928480624076
3.947,-6.79731758374295
3.956,-6.8032010625601
3.965,-6.81041142542085
3.974,-6.81886593929626
3.983,-6.82848600389269
3.992,-6.83919695515548
4.001,-6.85092788008838
4.01,-6.86361144303303
4.019,-6.87718372357014
4.028,-6.89158406623335
4.037,-6.90675494226947
4.046,-6.92264182373423
4.055,-6.93919307028403
4.064,-6.95635982911083
4.073,-6.97409594857255
4.082,-6.99235790619555
4.091,-7.0111047518738
4.1,-7.03029806726034
4.109,-7.04990194254858
4.118,-7.06988297207386
4.127,-7.0902102704367
4.136,-7.11085551116289
4.145,-7.13179299027837
4.154,-7.15299971759636
4.163,-7.17445553899816
4.172,-7.1961432935477
4.181,-7.21804900992246
4.19,-7.2401621473832
4.199,-7.2624758873524
4.208,-7.28498748264144
4.217,-7.30769867247136
4.226,-7.33061617268517
4.235,-7.35375225196167
4.244,-7.37712540641857
4.253,-7.40076114673813
4.262,-7.4246929138509
4.271,-7.44896314124781
4.28,-7.47362448410776
4.289,-7.49874123754178
4.298,-7.52439096823244
4.307,-7.55066638537985
4.316,-7.57767747785153
4.325,-7.60555394433126
4.334,-7.6344479414535
4.343,-7.66453717053385
4.352,-7.6960283153936
4.361,-7.72916083036672
4.37,-7.76421105683161
4.379,-7.80149661593234
4.388,-7.84138098134211
4.397,-7.884278075192
4.406,-7.93065664842802
4.415,-7.98104409962678
4.424,-8.03602925017779
4.433,-8.09626342724354
4.442,-8.1624590116152
4.451,-8.23538439505443
4.46,-8.31585408130276
4.469,-8.40471249218921
4.478,-8.50280995997114
4.487,-8.61096947529523
4.496,-8.72994311153837
4.505,-8.8603577626
4.514,-9.00265099828016
4.523,-9.15699949211257
4.532,-9.323244543579
4.541,-9.50082148519097
4.55,-9.68870184508193
4.559,-9.88535847936516
4.568,-10.0887638724832
4.577,-10.2964298859996
4.586,-10.5054931626171
4.595,-10.7128443994136
4.604,-10.9152926372131
4.613,-11.1097489689565
4.622,-11.2934093162083
4.631,-11.4639146139371
4.64,-11.6194695787616
4.649,-11.7589077904095
4.658,-11.8816995655016
4.667,-11.9879078960011
4.676,-12.0781045261799
4.685,-12.1532617987557
4.694,-12.2146360373284
4.703,-12.2636556942261
4.712,-12.3018234976679
4.721,-12.3306375825143
4.73,-12.3515329487943
4.739,-12.365841984973
4.748,-12.3747712691946
4.757,-12.379391242319
4.766,-12.3806353620648
4.775,-12.3793057353101
4.784,-12.3760827784062
4.793,-12.3715370338877
4.802,-12.366141796653
4.811,-12.3602856379702
4.82,-12.3542842540164
4.829,-12.3483913149932
4.838,-12.3428081658164
4.847,-12.3376923460709
4.856,-12.3331649701889
4.865,-12.3293170510692
4.874,-12.3262148713148
4.883,-12.3239045132422
4.892,-12.3224156570315
4.901,-12.3217647495253
4.91,-12.3219576367011
4.919,-12.3229917423437
4.928,-12.3248578649285
4.937,-12.3275416547762
4.946,-12.331024824453
4.955,-12.3352861373077
4.964,-12.3403022119647
4.973,-12.3460481744907
4.982,-12.3524981847388
4.991,-12.3596258589546
5,-12.367404607002
